Export File Created with QBlade v0.963 64bit on 30.08.2022 at 21:09:56
     front rotor 0.24 Simulation    front rotor 11.42 Simulation     front rotor 13.2 Simulation      front rotor 2.7 Simulation     front rotor 6.59 Simulation     front rotor 9.33 Simulation
 TSR Thrust [N] TSR Thrust [N] TSR Thrust [N] TSR Thrust [N] TSR Thrust [N] TSR Thrust [N]
     1.00000e+00     8.56629e+01     1.00000e+00     1.62977e+05     1.00000e+00     2.17742e+05     1.00000e+00     9.11009e+03     1.00000e+00     5.42708e+04     1.00000e+00     1.08782e+05
     1.50000e+00     1.18670e+02     1.50000e+00     2.00935e+05     1.50000e+00     2.68455e+05     1.50000e+00     1.12319e+04     1.50000e+00     6.69106e+04     1.50000e+00     1.34118e+05
     2.00000e+00     1.73910e+02     2.00000e+00     2.59520e+05     2.00000e+00     3.46726e+05     2.00000e+00     1.45066e+04     2.00000e+00     8.64189e+04     2.00000e+00     1.73221e+05
     2.50000e+00     2.50298e+02     2.50000e+00     3.44245e+05     2.50000e+00     4.59921e+05     2.50000e+00     1.92425e+04     2.50000e+00     1.14632e+05     2.50000e+00     2.29773e+05
     3.00000e+00     3.37859e+02     3.00000e+00     4.55473e+05     3.00000e+00     6.08525e+05     3.00000e+00     2.54600e+04     3.00000e+00     1.51671e+05     3.00000e+00     3.04014e+05
     3.50000e+00     4.24637e+02     3.50000e+00     5.87025e+05     3.50000e+00     7.84282e+05     3.50000e+00     3.28134e+04     3.50000e+00     1.95477e+05     3.50000e+00     3.91821e+05
     4.00000e+00     5.03956e+02     4.00000e+00     7.25877e+05     4.00000e+00     9.69793e+05     4.00000e+00     4.05750e+04     4.00000e+00     2.41714e+05     4.00000e+00     4.84501e+05
     4.50000e+00     5.80633e+02     4.50000e+00     8.54718e+05     4.50000e+00     1.14193e+06     4.50000e+00     4.77769e+04     4.50000e+00     2.84617e+05     4.50000e+00     5.70498e+05
     5.00000e+00     6.57894e+02     5.00000e+00     9.84021e+05     5.00000e+00     1.31468e+06     5.00000e+00     5.50047e+04     5.00000e+00     3.27675e+05     5.00000e+00     6.56804e+05
     5.50000e+00     7.21136e+02     5.50000e+00     1.08778e+06     5.50000e+00     1.45331e+06     5.50000e+00     6.08048e+04     5.50000e+00     3.62227e+05     5.50000e+00     7.26062e+05
     6.00000e+00     7.69260e+02     6.00000e+00     1.14474e+06     6.00000e+00     1.52940e+06     6.00000e+00     6.39883e+04     6.00000e+00     3.81192e+05     6.00000e+00     7.64076e+05
     6.50000e+00     8.08072e+02     6.50000e+00     1.18971e+06     6.50000e+00     1.58949e+06     6.50000e+00     6.65025e+04     6.50000e+00     3.96170e+05     6.50000e+00     7.94097e+05
     7.00000e+00     8.39581e+02     7.00000e+00     1.23196e+06     7.00000e+00     1.64593e+06     7.00000e+00     6.88639e+04     7.00000e+00     4.10237e+05     7.00000e+00     8.22295e+05
     7.50000e+00     8.65304e+02     7.50000e+00     1.27154e+06     7.50000e+00     1.69881e+06     7.50000e+00     7.10763e+04     7.50000e+00     4.23417e+05     7.50000e+00     8.48713e+05
     8.00000e+00     8.86413e+02     8.00000e+00     1.30845e+06     8.00000e+00     1.74812e+06     8.00000e+00     7.31393e+04     8.00000e+00     4.35707e+05     8.00000e+00     8.73346e+05
     8.50000e+00     9.02621e+02     8.50000e+00     1.34308e+06     8.50000e+00     1.79439e+06     8.50000e+00     7.50751e+04     8.50000e+00     4.47239e+05     8.50000e+00     8.96462e+05
     9.00000e+00     9.14306e+02     9.00000e+00     1.37665e+06     9.00000e+00     1.83924e+06     9.00000e+00     7.69516e+04     9.00000e+00     4.58417e+05     9.00000e+00     9.18869e+05
     9.50000e+00     9.21449e+02     9.50000e+00     1.40917e+06     9.50000e+00     1.88269e+06     9.50000e+00     7.87695e+04     9.50000e+00     4.69247e+05     9.50000e+00     9.40576e+05
     1.00000e+01     9.24273e+02     1.00000e+01     1.44045e+06     1.00000e+01     1.92448e+06     1.00000e+01     8.05181e+04     1.00000e+01     4.79664e+05     1.00000e+01     9.61456e+05

